ID,TARGET
1249,-11815393847.194193
1250,-11125150384.542479
1251,-9750275194.727743
1252,-7836673399.936371
1253,-5538667725.538878
1254,-2932016600.361975
1255,-288889194.5886317
1256,2413161433.5644794
1257,5033841897.428782
1258,7413217736.179663
1259,9329625398.896872
1260,9890798945.843277
1261,9890798946.208395
1262,9624241511.56277
1263,7831292029.196696
1264,5519257016.020776
1265,2926635229.2265644
1266,227390468.70333853
1267,-2449407349.9526796
1268,-5084117152.5583105
1269,-7452269520.332044
1270,-9466882553.58132
1271,-10976439394.651037
1272,-11826617318.138594
1273,-11907987482.415884
1274,-11212132284.309961
1275,-9828839491.281778
1276,-7906820093.287983
1277,-5603202683.417545
1278,-2990939822.7785907
1279,-347812417.043108
1280,2354238211.2938776
1281,4969306939.785973
1282,7343071043.16468
1283,9248255234.878113
1284,9890798946.1918
1285,9890798946.240364
1286,9528842008.621372
1287,7738698393.954785
1288,5432275116.050317
1289,2842459197.0582623
1290,143214436.6173685
1291,-2530777514.275085
1292,-5171099052.369355
1293,-7542057287.850249
1294,-9562282056.550825
1295,-11071838897.614378
1296,-11922016821.113663
1297,-12000581117.647844
1298,-11299114184.066717
1299,-9907403787.858622
1300,-7979772654.390004
1301,-5670543509.044958
1302,-3049863045.199737
1303,-406735639.4612912
1304,2292509121.0719657
1305,4904771981.970042
1306,7270118482.262924
1307,9166885070.833883
1308,9890798946.284365
1309,9890798946.27882
1310,9433442505.584631
1311,7648910626.554512
1312,5342487348.89367
1313,2758283165.3357615
1314,59038404.6296529
1315,-2614953546.33008
1316,-5260886819.816047
1317,-7634650923.064191
1318,-9654875691.780136
1319,-11170044268.310127
1320,-12020222191.810253
1321,-12095980620.606693
1322,-11386096083.827055
1323,-9988773952.138964
1324,-8052725215.460658
1325,-5735078466.9228
1326,-3108786267.613894
1327,-468464729.6151404
1328,2230780030.908648
1329,4840237024.069473
1330,7199971788.875798
1331,9085514906.530321
1332,9890798946.282381
1333,9890798946.270689
1334,9335237134.8837
1335,7553511123.596832
1336,5255505449.068221
1337,2671301265.5569773
1338,-25137627.352644034
1339,-2699129578.3717465
1340,-5347868719.586576
1341,-7727244558.311001
1342,-9750275194.73797
1343,-11268249638.99909
1344,-12118427562.48706
1345,-12191380123.559748
1346,-11475883851.315908
1347,-10070144116.434975
1348,-8125677776.555634
1349,-5802419292.541993
1350,-3167709490.0280366
1351,-527387952.0287884
1352,2169050940.6682963
1353,4775702065.988459
1354,7127019227.466296
1355,9004144741.89919
1356,9890798946.070786
1357,9890798945.96905
1358,9237031763.798914
1359,7460917488.031292
1360,5165717681.22485
1361,2584319365.452936
1362,-112119527.18435274
1363,-2783305610.399688
1364,-5437656487.090877
1365,-7819838193.540632
1366,-9848480565.453297
1367,-11366455009.714472
1368,-12219438800.961073
1369,-12286779626.538857
1370,-11565671618.834188
1371,-10148708412.998142
1372,-8198630337.6669855
1373,-5869760118.166438
1374,-3226632712.447346
1375,-589117042.1612422
1376,2107321850.637032
1377,4708361240.4186125
1378,7051260798.703622
1379,8919968709.651827
1380,9890798945.821507
1381,9890798946.010681
1382,9138826392.917631
1383,7365517984.8338
1384,5073124045.983665
1385,2497337465.7249475
1386,-199101427.0637194
1387,-2867481642.3779387
1388,-5527444254.605205
1389,-7912431828.794721
1390,-9946685936.14658
1391,-11467466248.145548
1392,-12317644171.644375
1393,-12384984997.240028
1394,-11655459386.321209
1395,-10230078577.290787
1396,-8271582898.736553
1397,-5937100943.78852
1398,-3285555934.8763227
1399,-650846132.3317475
1400,2045592760.4046772
1401,4641020414.728042
1402,6978308237.44914
1403,8835792677.574331
1404,9890798945.707443
1405,9890798945.977118
1406,9037815154.47908
1407,7270118482.062377
1408,4983336278.496349
1409,2407549698.360441
1410,-286083326.777148
1411,-2954463542.2103605
1412,-5620037889.823258
1413,-8007831331.75804
1414,-10044891306.869942
1415,-11568477486.601622
1416,-12418655410.101946
1417,-12480384500.20772
1993,-14943936370.942856
1994,-14003970679.952583
1995,-12337285245.766655
1996,-10165543619.413054
1997,-7671127203.604609
1998,-5008358723.743671
1999,-2252996608.6552887
2000,373295590.7277733
2001,2834041593.80531
2002,4955277601.188105
2003,6543398739.081179
2004,7376741456.157744
2005,7306594762.838883
2006,6349793865.460635
2007,4669079092.473369
2008,2483308127.250673
2009,-13914156.411683049
2010,-2654235694.572167
2011,-5423627148.424233
2012,-8080783892.835195
2013,-10549947499.025072
2014,-12679601109.369112
2015,-14273333982.45571
2016,-15112288435.010284
2017,-15050559344.839417
2018,-14099370182.904957
2019,-12424267145.52807
2020,-10241302048.24161
2021,-7741273896.962941
2022,-5075699549.359105
2023,-2320337434.267327
2024,303148897.4052002
2025,2755477297.302033
2026,4868295701.46069
2027,6445193368.3417225
2028,7270118482.354756
2029,7197165921.301419
2030,6237559156.118225
2031,4562456118.616803
2032,2379491021.152138
2033,-114925394.86862577
2034,-2752441065.3248124
2035,-5524638386.849248
2036,-8181795131.269749
2037,-10656570472.922123
2038,-12789029950.994558
2039,-14382762824.084326
2040,-15221717276.636868
2041,-15154376450.99948
2042,-14194769685.851822
2043,-12508443177.535908
2044,-10317060477.043743
2045,-7811420590.301995
2046,-5143040374.97676
2047,-2387678259.8853426
2048,233002204.033321
2049,2679718868.522634
2050,4784119669.390567
2051,6346987997.52822
2052,7163495508.156622
2053,7084931211.51657
2054,6128130314.218793
2055,4453027276.667928
2056,2275673914.8554177
2057,-215936633.27635175
2058,-2847840568.296403
2059,-5622843757.49958
2060,-8282806369.685583
2061,-10760387579.08227
2062,-12898458792.631853
2063,-14494997533.452188
2064,-15333951986.012558
2065,-15260999424.904776
2066,-14290169188.824886
2067,-12592619209.566223
2068,-10392818905.870098
2069,-7881567283.66941
2070,-5210381200.603368
2071,-2455019085.5088882
2072,160049642.93490094
2073,2601154571.887247
2074,4697137769.565582
2075,6251588494.564059
2076,7056872534.520917
2077,6972696502.548039
2078,6015895604.968632
2079,4346404303.026731
2080,2171856808.8469276
2081,-316947871.74683
2082,-2943240071.263433
2083,-5723854996.010581
2084,-8383817608.152536
2085,-10864204685.266441
2086,-13005081766.554605
2087,-14607232242.846895
2088,-15446186695.397078
2089,-15364816531.08482
2090,-14385568691.805552
2091,-12676795241.609684
2092,-10468577334.698666
2093,-7951713977.030759
2094,-5277722026.228467
2095,-2519554043.3896494
2096,89902949.5606475
2097,2522590275.282192
2098,4610155869.785709
2099,6153383123.498813
2100,6950249560.03861
2101,6863267660.356702
2102,5906466763.30262
2103,4236975461.3137445
2104,2068039702.4008095
2105,-415153242.57911557
2106,-3038639574.2002707
2107,-5822060366.687745
2108,-8484828846.566731
2109,-10968021791.426813
2110,-13114510608.17436
2111,-14719466952.2104
2112,-15555615537.031828
2113,-15471439504.978653
2114,-14480968194.769499
2115,-12763777141.382664
2116,-10544335763.531878
2117,-8021860670.382741
2118,-5345062851.84799
2119,-2586894869.0243073
2120,16950388.498226542
2121,2444025978.8292603
2122,4520368102.275328
2123,6055177752.9041395
2124,6843626586.361028
2125,6751032951.097072
2126,5794232053.841129
2127,4130352487.1609497
2128,1964222596.3337517
2129,-516164480.9270223
2130,-3131233209.485847
2131,-5920265737.4160595
2132,-8585840085.009252
2133,-11071838897.593836
2134,-13221133582.072744
2135,-14828895793.842022
2136,-15667850246.404222
2137,-15575256611.143015
2138,-14576367697.727741
2139,-12847953173.394669
2140,-10620094192.357262
2141,-8092007363.753724
2142,-5415209545.2133665
2143,-2654235694.662631
2144,-53196304.9110869
2145,2365461682.207517
2146,4433386202.566421
2147,5956972382.536704
2148,6737003612.687868
2149,6638798241.922207
2150,5684803212.185551
2151,4023729513.430101
2152,1860405490.161
2153,-617175719.3993202
2154,-3223826844.6645646
2155,-6021276975.83624
2156,-8686851323.436104
2157,-11175656003.778772
2158,-13330562423.72505
2159,-14941130503.221573
2160,-15777279088.041634
2161,-15679073717.323936
2473,-17023084362.06877
2474,-15883902061.926832
2475,-14012388283.14961
2476,-11672294592.733414
2477,-9076866938.50956
2478,-6372010442.628537
2479,-3571754443.7865415
2480,-1080143895.6715028
2481,1245920456.1550856
2482,3190386796.112724
2483,4584903060.129379
2484,5258311316.384005
2485,5109600326.266802
2486,4164022899.9455204
2487,2553454820.41154
2488,451859887.32497704
2489,-1966798099.7427208
2490,-4637984182.824424
2491,-7354064149.625592
2492,-10042085439.1144
2493,-12578589870.936455
2494,-14795225381.040403
2495,-16461910815.22372
2496,-17300865267.783794
2497,-17124095600.489782
2498,-15973689829.42603
2499,-14090952579.707415
2500,-11748053021.548773
2501,-9147013631.840815
2502,-6442157135.971615
2503,-3636289401.660003
2504,-1153096456.7613916
2505,1164550291.8721523
2506,3103404896.44312
2507,4486697689.544864
2508,5154494210.429196
2509,5002977352.760216
2510,4060205793.685779
2511,2452443582.1653914
2512,356460384.465141
2513,-2059391734.8449173
2514,-4727771950.290592
2515,-7443851917.163873
2516,-10134679074.353601
2517,-12673989373.899963
2518,-14896236619.476387
2519,-16565727921.388247
2520,-17407488241.69217
2521,-17225106838.929325
2522,-16063477596.925663
2523,-14172322744.008049
2524,-11821005582.647846
2525,-9217160325.208496
2526,-6509497961.593974
2527,-3695212624.0916357
2528,-1226049017.8671823
2529,1083180127.5890439
2530,3013617128.911251
2531,4391298186.597732
2532,5050677104.127864
2533,4899160246.602632
2534,3956388687.8786855
2535,2351432343.7833033
2536,261060881.55881372
2537,-2149179502.424207
2538,-4817559717.822519
2539,-7533639684.641491
2540,-10224466841.83199
2541,-12766583009.119532
2542,-14994441990.158962
2543,-16669545027.545568
2544,-17511305347.828465
2545,-17323312209.627205
2546,-16156071232.141191
2547,-14253692908.293308
2548,-11893958143.726377
2549,-9284501150.814047
2550,-6579644654.938674
2551,-3756941714.2296224
2552,-1299001578.919218
2553,1004615831.0381839
2554,2926635229.144937
2555,4293092815.828888
2556,4946859998.073008
2557,4792537272.602871
2558,3852571581.5931616
2559,2253226972.969926
2560,165661378.49214
2561,-2238967269.977868
2562,-4907347485.339459
2563,-7620621584.416978
2564,-10314254609.341991
2565,-12861982512.093357
2566,-15092647360.875332
2567,-16773362133.726982
2568,-17615122454.02218
2569,-17424323448.06449
2570,-16245858999.657839
2571,-14335063072.58882
2572,-11966910704.831585
2573,-9354647844.184902
2574,-6646985480.576185
2575,-3815864936.663625
2576,-1374760007.7929416
2577,923245666.6750757
2578,2836847461.573432
2579,4197693312.797662
2580,4845848759.48
2581,4688720166.636945
2582,3748754475.619273
2583,2155021602.404709
2584,70261875.62736273
2585,-2328755037.418935
2586,-4994329385.061861
2587,-7707603484.172015
2588,-10404042376.835709
2589,-12954576147.330841
2590,-15190852731.583046
2591,-16874373372.15732
2592,-17718939560.193806
2593,-17522528818.76555
2594,-16332840899.413738
2595,-14413627369.146284
2596,-12039863265.920359
2597,-9424794537.540995
2598,-6714326306.187752
2599,-3874788159.0639424
2600,-1447712568.8722956
2601,841875502.3943162
2602,2749865561.8340154
2603,4102293809.84617
2604,4744837521.181858
2605,4584903060.286505
2606,3647743236.952385
2607,2056816231.6488993
2608,-22331759.640815675
2609,-2415736937.12168
2610,-5081311284.82099
2611,-7794585383.913704
2612,-10491024276.589205
2613,-13044363914.813328
2614,-15286252234.535543
2615,-16978190478.334307
2616,-17822756666.36457
2617,-17620734189.47282
2618,-16422628666.908518
2619,-14492191665.711716
2620,-12112815827.023106
2621,-9492135363.173714
2622,-6781667131.823997
2623,-3933711381.5088625
2624,-1520665129.9755006
2625,763311205.8246131
2626,2662883662.04547
2627,4006894306.8780093
2628,4643826282.655741
2629,4483891821.869977
2630,3546731998.612789
2631,1958610860.9472654
2632,-114925394.89380938
2633,-2502718836.9089994
2634,-5168293184.602594
2635,-7881567283.68985
2636,-10578006176.360842
2637,-13134151682.315125
2638,-15381651737.50756
2639,-17076395849.032967
2640,-17926573772.526512
2641,-17718939560.166836
3121,-18658905251.15012
3122,-18153849058.978374
3123,-16057865861.447536
3124,-13563449445.655275
3125,-10889457494.859814
3126,-8178989263.4990635
3127,-5538667725.517598
3128,-3004969161.427352
3129,-858480344.6191334
3130,912022195.8537557
3131,2146603999.1030016
3132,2713389281.44921
3133,2550648952.908938
3134,1675218219.7524598
3135,185302452.7292973
3136,-1778804961.4653473
3137,-4138539726.080028
3138,-6697491099.80868
3139,-9385512389.284096
3140,-12101592356.094925
3141,-14725078687.671225
3142,-17087619319.973557
3143,-18658905251.187008
3144,-18658905251.18819
3145,-18658905251.17319
3146,-18226801620.10544
3147,-16128012554.825571
3148,-13627984403.554438
3149,-10953992452.75975
3150,-8240718353.69295
3151,-5603202683.424392
3152,-3072309987.076312
3153,-931432905.722458
3154,836263767.0035092
3155,2065233834.7126687
3156,2634824984.8332005
3157,2472084656.2509513
3158,1599459790.9144785
3159,115155759.35849613
3160,-1840534051.6228564
3161,-4197462948.581155
3162,-6753608454.452472
3163,-9441629743.975119
3164,-12154903843.053648
3165,-14784001910.111498
3166,-17152154277.867704
3167,-18658905251.186447
3168,-18658905251.18603
3169,-18658905251.156563
3170,-18302560048.90493
3171,-16195353380.453993
3172,-13692519361.448912
3173,-11015721542.906433
3174,-8305253311.560788
3175,-5667737641.305086
3176,-3136844944.9626474
3177,-1001579599.1264778
3178,760505338.0828036
3179,1989475405.7810583
3180,2553454820.4611683
3181,2393520359.6127186
3182,1526507229.8025937
3183,47814933.74189132
3184,-1902263141.760167
3185,-4256386170.9634304
3186,-6809725809.189102
3187,-9494941230.917591
3188,-12211021197.748228
3189,-14840119264.791973
3190,-17213883368.027348
3191,-18658905251.1965
3192,-18658905251.19204
3193,-18658905251.170933
3194,-18375512610.007298
3195,-16262694206.069628
3196,-13757054319.333395
3197,-11077450633.062914
3198,-8366982401.722131
3199,-5732272599.201917
3200,-3198574035.1201034
3201,-1071726292.4759803
3202,687552777.0116868
3203,1910911109.2591653
3204,2477696391.6905622
3205,2317761930.85965
3206,1456360536.4282343
3207,-16720024.183046138
3208,-1963992231.9316132
3209,-4312503525.648826
3210,-6863037296.136367
3211,-9545446850.141232
3212,-12261526816.957066
3213,-14893430751.739723
3214,-17275612458.17646
3215,-18658905251.188553
3216,-18658905251.193302
3217,-18658905251.16451
3218,-18445659303.361843
3219,-16330035031.688812
3220,-13818783409.480558
3221,-11139179723.21358
3222,-8428711491.86836
3223,-5796807557.083375
3224,-3263108993.000471
3225,-1141872985.83708
3226,614600215.889776
3227,1835152680.3688931
3228,2401937962.732104
3229,2244809369.6009784
3230,1386213842.8952162
3231,-81254982.16035618
3232,-2022915454.370307
3233,-4365815012.561606
3234,-6913542915.351558
3235,-9595952469.347986
3236,-12312032436.162779
3237,-14946742238.681763
3238,-17334535680.586903
3239,-18658905251.182014
3240,-18658905251.179592
3241,-18658905251.150818
3242,-18518611864.447807
3243,-16394569989.583498
3244,-13883318367.371357
3245,-11200908813.36127
3246,-8490440582.014125
3247,-5858536647.229835
3248,-3322032215.4173365
3249,-1209213811.4695423
3250,541647654.8002828
3251,1762200119.196965
3252,2326179533.825079
3253,2171856808.5407734
3254,1318873017.3752344
3255,-145789940.07425106
3256,-2079032809.0657768
3257,-4419126499.514988
3258,-6964048534.551712
3259,-9643652220.821272
3260,-12359732187.650398
3261,-15000053725.648113
3262,-17390653035.267666
3263,-18658905251.193844
3264,-18658905251.197624
3265,-18658905251.16282
3266,-18585952690.066677
3267,-16459104947.461344
3268,-13945047457.502535
3269,-11262637903.517176
3270,-8552169672.170031
3271,-5923071605.12142
3272,-3383761305.563398
3273,-1279360504.7995725
3274,471500961.44858766
3275,1686441690.4364204
3276,2253226972.879678
3277,2101710115.2569082
3278,1251532191.7792914
3279,-204713162.42749292
3280,-2132344295.9930818
3281,-4472437986.485171
3282,-7011748286.050989
3283,-9688546104.58139
3284,-12407431939.131289
3285,-15047753477.119287
3286,-17446770389.964264
3287,-18658905251.18417
3288,-18658905251.185093
3289,-18658905251.16212
4177,-18658905251.133476
4178,-18658905251.143333
4179,-18176296000.845547
4180,-15639791569.03494
4181,-12946158544.091671
4182,-10241302048.214743
4183,-7620621584.371063
4184,-5179516655.519825
4185,-2954463542.1763024
4186,-1203602076.0266354
4187,75873610.95186286
4188,763311205.9599569
4189,782952280.1218451
4190,137602701.21620366
4191,-1108202572.9362144
4192,-2833811229.603187
4193,-5036417401.051714
4194,-7460687123.533924
4195,-10072949984.176197
4196,-12777806480.062346
4197,-15474245372.731092
4198,-18027585010.960815
4199,-18658905251.17612
4200,-18658905251.182247
4201,-18658905251.161266
4202,-18658905251.155434
4203,-18195937074.996952
4204,-15662238510.9199
4205,-12968605485.973812
4206,-10260943122.367529
4207,-7640262658.51124
4208,-5199157729.658428
4209,-2968492880.8828645
4210,-1214825546.8931353
4211,70261875.47943398
4212,763311205.9338769
4213,788564015.5462908
4214,148826172.04429886
4215,-1091367366.5786707
4216,-2816976023.203022
4217,-5013970459.208132
4218,-7438240181.655931
4219,-10047697174.578972
4220,-12752553670.448175
4221,-15448992563.124136
4222,-18002332201.352993
4223,-18658905251.18232
4224,-18658905251.17542
4225,-18658905251.161133
4226,-18658905251.157043
4227,-18212772281.40533
4228,-15679073717.303087
4229,-12988246560.092255
4230,-10280584196.487286
4231,-7657097864.897431
4232,-5213187068.30817
4233,-2979716351.8044276
4234,-1223243150.1156843
4235,67456007.67112495
4236,763311205.7846463
4237,796981618.6245215
4238,162855510.64920235
4239,-1074532160.18662
4240,-2794529081.3291655
4241,-4991523517.314659
4242,-7412987372.029673
4243,-10022444364.93312
4244,-12724494993.086653
4245,-15423739753.496696
4246,-17979885259.45481
4247,-18658905251.15535
4248,-18658905251.154373
4249,-18658905251.12872
4250,-18658905251.136353
4251,-18226801620.05941
4252,-15695908923.721895
4253,-13005081766.509075
4254,-10297419402.883902
4255,-7673933071.300046
4256,-5227216406.991175
4257,-2988133955.0125084
4258,-1228854885.5819108
4259,67456007.70981286
4260,768922941.3142498
4261,805399221.8388354
4262,176884849.340042
4263,-1054891086.0478522
4264,-2774888007.1759596
4265,-4966270707.696729
4266,-7387734562.413953
4267,-9994385687.588797
4268,-12696436315.735308
4269,-15395681076.149868
4270,-17951826582.1137
4271,-18658905251.16816
4272,-18658905251.157627
4273,-18658905251.13751
4274,-18658905251.148056
4275,-18240830958.735153
4276,-15712744130.118664
4277,-13021916972.912191
4278,-10314254609.305088
4279,-7687962409.98123
4280,-5238439877.941685
4281,-2996551558.2249117
4282,-1234466621.0590332
4283,67456007.736691
4284,774534676.8394834
4285,819428560.5325104
4286,193720055.76108
4287,-1035250011.8701048
4288,-2749635197.5804014
4289,-4938212030.373059
4290,-7356870017.352339
4291,-9963521142.529875
4292,-12668377638.409143
4293,-15367622398.808506
4294,-17923767904.77388
4295,-18658905251.184303
4296,-18658905251.182922
4297,-18658905251.151764
4298,-18658905251.13993
