ID,TARGET
1249,-37.600145035177775
1250,-35.43974595679538
1251,-31.082319542389087
1252,-25.080062889181136
1253,-17.64941122174423
1254,-9.444617174289306
1255,-0.9984379221368727
1256,7.657084249285617
1257,16.044178518194713
1258,23.66932549433477
1259,30.066514814127913
1260,31.928214639950056
1261,32.22179202507323
1262,31.46453601981466
1263,25.691855257799944
1264,18.13541096121571
1265,9.679754585854425
1266,0.8006320026825051
1267,-7.811382989310005
1268,-16.374339439826144
1269,-24.008290910069263
1270,-30.504509855500146
1271,-35.35986116159438
1272,-38.15596541515697
1273,-38.46295635701608
1274,-36.268687946896534
1275,-31.799776048565036
1276,-25.63822506671204
1277,-18.2146613887071
1278,-9.792040648484544
1279,-1.2096512750013062
1280,7.657922338052231
1281,16.281941139821356
1282,24.2072874388914
1283,30.483208810887845
1284,32.71039435818784
1285,32.74894925079843
1286,31.586356143582634
1287,25.706769753404842
1288,17.994550815079492
1289,9.403467977414948
1290,0.4578009012948314
1291,-8.318022381477931
1292,-16.961531532846493
1293,-24.72506802601947
1294,-31.340016054856278
1295,-36.325914217299214
1296,-39.13328210284999
1297,-39.4188213009902
1298,-37.14679470108422
1299,-32.61610311455934
1300,-26.31829215770449
1301,-18.731319963435453
1302,-10.093325982009446
1303,-1.344663157658033
1304,7.806380543356681
1305,16.60224409966213
1306,24.51428578334344
1307,30.98926694290094
1308,33.41669247856862
1309,33.34361322578934
1310,31.854116123684435
1311,25.810165568458615
1312,18.038525538178874
1313,9.42965644549622
1314,0.32959693926750333
1315,-8.509180800600916
1316,-17.511552377952285
1317,-25.38227682580782
1318,-32.1220546248569
1319,-37.155158789978486
1320,-39.99791241749699
1321,-40.282262800410535
1322,-37.96337558486448
1323,-33.32584374905673
1324,-26.916106580416454
1325,-19.20466085615044
1326,-10.41947707230247
1327,-1.5021585215317828
1328,7.866343378912461
1329,16.637651720059694
1330,24.63418103285585
1331,31.022703395931785
1332,33.71147969080721
1333,33.73013028272453
1334,31.881265669910135
1335,26.022708130001774
1336,17.984489029550787
1337,9.2216050872712
1338,-0.03056068520891131
1339,-9.135672587468434
1340,-18.11120041785216
1341,-26.089949700704892
1342,-32.916394516303626
1343,-38.023670763825066
1344,-40.86890860808671
1345,-41.150872608746795
1346,-38.76671117632395
1347,-34.0574948247413
1348,-27.519344764639754
1349,-19.669310043465885
1350,-10.754413472850501
1351,-1.792141452985561
1352,7.308346644982521
1353,16.314378182025393
1354,24.490522969917947
1355,31.113990678620212
1356,34.21658927149383
1357,34.17030034340951
1358,31.845839876265927
1359,25.87039164097405
1360,17.9364727349448
1361,8.90620307858535
1362,-0.2699443179944865
1363,-9.535713602046599
1364,-18.681721257889876
1365,-26.80823866006358
1366,-33.77358302453649
1367,-39.014380186730705
1368,-41.97085564062945
1369,-42.226254002123824
1370,-39.806170490752265
1371,-34.954905993632565
1372,-28.305803454464694
1373,-20.24266316590365
1374,-11.130630429457597
1375,-1.9980913582530775
1376,7.356132373490254
1377,16.442694671179197
1378,24.702310802524153
1379,31.063695985310915
1380,34.53452622873374
1381,34.80437631005407
1382,31.886326876492603
1383,25.705869316264398
1384,17.92509877617158
1385,8.786952802578526
1386,-0.7027164189039468
1387,-9.971522183337584
1388,-19.32221096748799
1389,-27.624757751189463
1390,-34.70839326798705
1391,-40.03098681913616
1392,-42.98395028322011
1393,-43.27731199294067
1394,-40.76155306888177
1395,-35.80869347332009
1396,-29.00474478860633
1397,-20.854712008114802
1398,-11.553106797760847
1399,-2.3092839988712512
1400,7.20332559761664
1401,16.42798433194912
1402,24.670488194236896
1403,31.2320150351934
1404,35.00670039945362
1405,35.3327727631422
1406,32.01664464485839
1407,26.00941544801117
1408,17.956280253784826
1409,8.697734714017315
1410,-1.005285724726491
1411,-10.503749583171157
1412,-19.93948289459695
1413,-28.452548367853524
1414,-35.7114512340213
1415,-41.132684068845265
1416,-44.142351584510834
1417,-44.341392814345454
1993,-74.4405028681449
1994,-69.8938156515851
1995,-61.547398014392456
1996,-50.78059693808609
1997,-38.48916229014867
1998,-25.21325137283111
1999,-11.466502031701566
2000,1.9953729089102126
2001,14.454362558054527
2002,25.105426374338094
2003,33.24246476796907
2004,37.47612192307315
2005,37.03563923553884
2006,32.156612165452316
2007,23.5960471819335
2008,12.491586901205665
2009,-0.002318892057701305
2010,-13.487309178348369
2011,-27.485841918140068
2012,-40.74130419862922
2013,-53.094058180391585
2014,-63.8256117081728
2015,-71.79696072596744
2016,-76.00765420842254
2017,-75.75067646214484
2018,-71.00722887186203
2019,-62.64929094895888
2020,-51.72415517673653
2021,-39.142178211333885
2022,-25.720844867619235
2023,-11.832637754756433
2024,1.485720650101939
2025,13.999242270285322
2026,24.97281174897944
2027,33.00417452158399
2028,37.059820131116794
2029,36.568877291239005
2030,31.682050848207837
2031,23.15146383701267
2032,12.049392819316381
2033,-0.599848266162553
2034,-13.969647348946637
2035,-28.220358313942597
2036,-41.559020457261795
2037,-53.9883259854123
2038,-64.89158940373636
2039,-72.98898886695497
2040,-77.287603756311
2041,-76.97528161348237
2042,-72.17753616191112
2043,-63.6461148800463
2044,-52.54582927052434
2045,-39.826401646090744
2046,-26.247941027037086
2047,-12.211658543586964
2048,1.2284725311110378
2049,13.886048087769268
2050,24.676962291758173
2051,32.79199476767826
2052,36.957939299996724
2053,36.46698637554073
2054,31.709385704101805
2055,22.991609009845888
2056,11.8825759311203
2057,-1.050484960472204
2058,-14.667529311776889
2059,-29.122905396427086
2060,-42.503664587258754
2061,-55.24988246805151
2062,-66.21809289628618
2063,-74.38708078186392
2064,-78.74018216872719
2065,-78.43891610587889
2066,-73.44531666569856
2067,-64.75417956815545
2068,-53.509483083827945
2069,-40.70669817902126
2070,-26.961436318200867
2071,-12.753294717234894
2072,0.7429365407388104
2073,13.401638251807526
2074,24.39607972794147
2075,32.64539836124459
2076,36.81271866102361
2077,36.22227602635394
2078,31.30598009755886
2079,22.735292158127777
2080,11.171802825561826
2081,-1.7408477809422038
2082,-15.338821586656195
2083,-29.71348795366066
2084,-43.59958310988986
2085,-56.419580218049305
2086,-67.54020881582619
2087,-75.82843828568912
2088,-80.14017358383353
2089,-79.81502684919906
2090,-74.78857379736837
2091,-65.98518955371765
2092,-54.43305047139984
2093,-41.469219871476525
2094,-27.58330544752789
2095,-13.200250370173308
2096,0.35330737657204736
2097,13.098347195877068
2098,24.18912858209842
2099,32.064104732831765
2100,36.24878161290326
2101,35.901589150895234
2102,31.210272570134293
2103,22.42605439653198
2104,10.852373752695712
2105,-2.2160561215650887
2106,-15.958617941048942
2107,-30.52054630206294
2108,-44.56248120345481
2109,-57.51989049368058
2110,-68.78655503114351
2111,-77.19342090899772
2112,-81.63874893271714
2113,-81.22389704701163
2114,-76.09332812232606
2115,-67.11518578771575
2116,-55.51423688368595
2117,-42.272917524078366
2118,-28.203588065016447
2119,-13.684059610737677
2120,0.05769040741506615
2121,13.079339474003064
2122,24.03752282817004
2123,32.150748239564564
2124,36.40006982140403
2125,35.844338449409406
2126,30.995190274298693
2127,21.980562935835223
2128,10.624009793289588
2129,-2.65774044292084
2130,-16.62395762306369
2131,-31.46382374838322
2132,-45.55154240331103
2133,-58.687685750277524
2134,-70.04154470486174
2135,-78.37947244944007
2136,-83.0508612605754
2137,-82.67422101506418
2138,-77.3387333352548
2139,-68.24942488615852
2140,-56.46215415266852
2141,-43.08204578239565
2142,-28.885244960767523
2143,-14.228695321136911
2144,-0.37437191173921747
2145,12.650223945060134
2146,23.869104322149724
2147,32.18498101081423
2148,36.436178090556496
2149,35.88950650210063
2150,30.6121141353251
2151,21.6130377831214
2152,10.002475555969795
2153,-3.319336087695774
2154,-17.34172993753782
2155,-32.29690223545913
2156,-46.57653257003403
2157,-59.936093113501556
2158,-71.46453523054151
2159,-80.09967953165688
2160,-84.54208834559176
2161,-84.09862414488816
2473,-104.40583860673723
2474,-97.46870428396505
2475,-86.03085588516115
2476,-71.75137663384157
2477,-55.93604563269946
2478,-39.29718556649641
2479,-22.06050842883178
2480,-6.707253155718718
2481,7.672534386572806
2482,19.752758527766673
2483,28.358495275829227
2484,32.599170807455266
2485,31.513219849464804
2486,25.79430498257625
2487,15.839208711126048
2488,2.7650474283937
2489,-12.287367675363384
2490,-28.8161488928763
2491,-45.52092627441198
2492,-62.17881865951131
2493,-77.90447932320785
2494,-91.63259567581008
2495,-101.95423068579657
2496,-107.22117616687501
2497,-106.04351771423171
2498,-99.0509115282839
2499,-87.42714755868656
2500,-72.93184648037823
2501,-56.822380551595415
2502,-40.11574321059197
2503,-22.665036218568275
2504,-7.258656183767016
2505,7.191362887759169
2506,19.469411746718833
2507,28.15710677356219
2508,32.42618336891701
2509,31.509583006161847
2510,25.24393403969225
2511,15.431347222629483
2512,2.47386351057321
2513,-12.842031441485233
2514,-29.26265007339134
2515,-46.25771211510437
2516,-63.29205008201279
2517,-79.16179867302708
2518,-93.04100556295089
2519,-103.4997741394618
2520,-108.80797163580974
2521,-107.70868769538902
2522,-100.46459375650375
2523,-88.74069539113407
2524,-74.09578460662851
2525,-57.82193400855613
2526,-40.88949290767414
2527,-23.278083151921237
2528,-7.790775504154226
2529,6.845533810102097
2530,19.06591825727446
2531,27.86415775958085
2532,32.023698210289695
2533,31.135971791261
2534,25.08966258198234
2535,14.859619395934715
2536,1.6644374641946342
2537,-13.520703735260213
2538,-30.483038712475718
2539,-47.41709862837615
2540,-64.36621291500524
2541,-80.41876028424485
2542,-94.4626218668709
2543,-105.0109965701613
2544,-110.36047100916585
2545,-109.12390999334093
2546,-101.89336240807461
2547,-90.02104629784299
2548,-75.14925628226229
2549,-58.70046867600104
2550,-41.64988330061533
2551,-23.845227014544434
2552,-8.266152900147063
2553,6.370485361092506
2554,18.655762463271458
2555,27.53923907742046
2556,31.757834005450604
2557,30.695305016453858
2558,24.672993962975852
2559,14.479201419887431
2560,1.0815959489500528
2561,-14.33048870687162
2562,-31.35037692023434
2563,-48.605993826688064
2564,-65.66010003894553
2565,-81.82855678159285
2566,-96.00325430128578
2567,-106.69270387723736
2568,-112.08252109389468
2569,-110.93360248169483
2570,-103.49751579205804
2571,-91.38311292752769
2572,-76.3589030965959
2573,-59.75810044791979
2574,-42.53162804974818
2575,-24.48541101447063
2576,-8.94842143461483
2577,5.825891721435255
2578,18.116815576860972
2579,26.89525046482413
2580,31.122044058506617
2581,30.21326269363817
2582,24.07561666712263
2583,13.80078718479399
2584,0.35296767387080763
2585,-15.02899201546279
2586,-32.09807339224244
2587,-49.45382463565238
2588,-66.74651539165279
2589,-83.09962990376698
2590,-97.4941798822947
2591,-108.25596268043773
2592,-113.71077189139942
2593,-112.51662147588286
2594,-104.94670796476203
2595,-92.67900893635488
2596,-77.50184698644625
2597,-60.75009944502199
2598,-43.289399366165526
2599,-24.97546445347143
2600,-9.356176497187334
2601,5.307781495859672
2602,17.708095100999344
2603,26.476288553019913
2604,30.831287161670843
2605,29.72250923969841
2606,23.701896918579223
2607,13.48929898440656
2608,-0.06599622438807273
2609,-15.73233111792797
2610,-32.946237584026676
2611,-50.488699822662966
2612,-67.85738912473425
2613,-84.37185252512063
2614,-98.95477274425502
2615,-109.80974272112326
2616,-115.4043613192207
2617,-114.14699089378337
2618,-106.35074882604931
2619,-94.038080409764
2620,-78.67474626313742
2621,-61.718593640598556
2622,-44.14098295896292
2623,-25.688158671362544
2624,-9.998456507872106
2625,4.8528320219938905
2626,17.32530538868741
2627,26.120000949376845
2628,30.38573477634418
2629,29.484933620271477
2630,23.29675780569596
2631,12.94080744623352
2632,-0.7282073612786917
2633,-16.364498229741002
2634,-33.80958763192848
2635,-51.466102843576664
2636,-69.0394503662992
2637,-85.5041447124695
2638,-100.28608016005637
2639,-111.49161858695516
2640,-117.05981695688388
2641,-115.74759966886086
3121,-144.0667015844283
3122,-140.2346555418353
3123,-124.13312292678711
3124,-104.9351639280485
3125,-84.29348611984733
3126,-63.394682149912114
3127,-43.02325468726485
3128,-23.36433844018211
3129,-6.703873566452785
3130,7.098034948354325
3131,16.838807291069315
3132,21.206552025962083
3133,19.904618918040796
3134,13.122185228661692
3135,1.4913651140468573
3136,-13.872055797370194
3137,-32.187613175563456
3138,-52.05938982826774
3139,-72.95659493611856
3140,-94.0668832707961
3141,-114.4028116348527
3142,-132.83978033881795
3143,-145.08710745079952
3144,-145.14774891334127
3145,-145.2432017960673
3146,-141.79481661125828
3147,-125.64548419589482
3148,-106.18456686596073
3149,-85.47759800052336
3150,-64.15797863695116
3151,-43.81927831728353
3152,-24.12502614483401
3153,-7.4159698010917054
3154,6.44103913654908
3155,16.095823660118185
3156,20.625003267863576
3157,19.281513575020654
3158,12.434482504890184
3159,0.7731834101523418
3160,-14.287339725947277
3161,-32.945917203666795
3162,-52.90595529069833
3163,-73.90445149949119
3164,-95.15512267669874
3165,-115.76005072655607
3166,-134.2703641107746
3167,-146.1166190579861
3168,-146.1320179410377
3169,-146.25969890756096
3170,-143.55366762494123
3171,-127.08742045890722
3172,-107.57847141811908
3173,-86.54520444602167
3174,-65.33987176553637
3175,-44.64105693024794
3176,-24.82269135621209
3177,-8.03208645063387
3178,5.813610434475777
3179,15.56968140995923
3180,20.104646729016167
3181,18.879870535830378
3182,12.267296772193731
3183,0.5316864942305983
3184,-14.915908668939664
3185,-33.63408534145128
3186,-53.6181976234584
3187,-74.94502905706395
3188,-96.47842411038255
3189,-117.07986413598883
3190,-135.8047858198861
3191,-147.2195305620662
3192,-147.20197737173294
3193,-147.2931029251995
3194,-145.07941621641658
3195,-128.48328640004001
3196,-108.76181879919568
3197,-87.64382034314986
3198,-66.2659903044223
3199,-45.44594989047073
3200,-25.414762038866684
3201,-8.614832832732645
3202,5.326761725031247
3203,15.084783632558356
3204,19.80255055325142
3205,18.420522827499553
3206,11.749608629579598
3207,-0.0776105257045856
3208,-15.665334239067306
3209,-34.36894137398485
3210,-54.47259051369292
3211,-75.91429743499975
3212,-97.47167546263518
3213,-118.33532122813813
3214,-137.26493933241545
3215,-148.18694079347551
3216,-148.28111868158703
3217,-148.31160677490516
3218,-146.66448747124014
3219,-129.8856751142739
3220,-110.02562384376688
3221,-88.7759400200539
3222,-67.23712449784762
3223,-46.277822634936456
3224,-26.08158105704024
3225,-9.164852538748164
3226,4.899807189666717
3227,14.649161424255908
3228,19.17999688207783
3229,17.920111873433598
3230,11.088694490043054
3231,-0.624054281147437
3232,-16.1921473445409
3233,-34.933994471577535
3234,-55.29811786455957
3235,-76.744407594324
3236,-98.4554062014704
3237,-119.54455488491476
3238,-138.6528400394618
3239,-149.26975369873617
3240,-149.3049862548869
3241,-149.40835573828554
3242,-148.3451309742013
3243,-131.43174318559977
3244,-111.34693683670866
3245,-89.848931013531
3246,-68.15414719588625
3247,-47.096578312153724
3248,-26.81810134385978
3249,-9.862200181190929
3250,4.241084705435242
3251,14.035928483166572
3252,18.641984991611935
3253,17.407430578529784
3254,10.623130621334894
3255,-1.2721509852481176
3256,-16.889145730716336
3257,-35.73574705707506
3258,-56.174688784374666
3259,-77.76600006765511
3260,-99.69166222541025
3261,-120.99688527880426
3262,-140.21623955551877
3263,-150.50717373632688
3264,-150.5629290042798
3265,-150.57212705457096
3266,-150.0586807053096
3267,-132.999848612395
3268,-112.68905985499441
3269,-91.17239626442279
3270,-69.27659272209075
3271,-48.13009809567848
3272,-27.521837869281626
3273,-10.4790556360158
3274,3.6477445149412233
3275,13.507601297234942
3276,18.18580052845755
3277,17.006363409397636
3278,10.175876485164736
3279,-1.7172344364644232
3280,-17.394113417712106
3281,-36.424322455601214
3282,-56.954553957559256
3283,-78.75595606570914
3284,-100.76172855035657
3285,-122.18701768499704
3286,-141.71616638651085
3287,-151.62616540405452
3288,-151.62189602748822
3289,-151.68637154559383
4177,-192.82753441030763
4178,-192.9377908970655
4179,-187.9998126674691
4180,-161.88238551727954
4181,-134.05769333886383
4182,-106.12278350566612
4183,-79.07997888682075
4184,-53.88551107559397
4185,-30.446544623349837
4186,-12.503692197748023
4187,0.7312727095850278
4188,7.7835194512208545
4189,8.025798593223044
4190,1.2674953690248003
4191,-11.521154316740649
4192,-29.49957233211353
4193,-52.30141066510987
4194,-77.52533406320799
4195,-104.42195104701932
4196,-132.74947106087893
4197,-160.5786863769663
4198,-187.1500075133372
4199,-193.7057688678051
4200,-193.7087092987931
4201,-193.88011726101104
4202,-193.84727030346403
4203,-189.1258668956889
4204,-162.91759561428626
4205,-135.03268601798663
4206,-106.76647328257968
4207,-79.5265301617801
4208,-54.169318993641355
4209,-30.987169654647005
4210,-12.681606601472595
4211,0.7076486736741572
4212,8.04789450127737
4213,8.246179379014393
4214,1.5340085903062572
4215,-11.385714509216086
4216,-29.376463200831495
4217,-52.30774628868676
4218,-77.61278501093966
4219,-104.83177268543659
4220,-133.08747100473192
4221,-161.2322171306505
4222,-187.92352176202985
4223,-194.82131771914646
4224,-194.85632799847644
4225,-194.88473179350513
4226,-194.99139453110274
4227,-190.33432865107625
4228,-163.93769406069987
4229,-135.89976146524896
4230,-107.71463916869834
4231,-80.35672671342309
4232,-54.789561286455864
4233,-31.478402393840042
4234,-13.051316527576091
4235,0.47195907374680246
4236,7.702112071698139
4237,8.137914625945996
4238,1.43849347496689
4239,-11.49655434223132
4240,-29.559784347767163
4241,-52.659771199039824
4242,-78.01257103425814
4243,-105.29964635815304
4244,-133.67739970869297
4245,-162.03345400325816
4246,-188.8349253243723
4247,-196.0204107329937
4248,-196.03344468910836
4249,-196.12278990949926
4250,-196.19198835002317
4251,-191.83390973479254
4252,-165.37039225923945
4253,-137.18785834385562
4254,-108.50740879932528
4255,-80.94993912856626
4256,-55.24821343109943
4257,-31.69059949001712
4258,-13.226213055564585
4259,0.4483843258367415
4260,7.900308207616035
4261,8.278026129837599
4262,1.5148046748863635
4263,-11.31316344125662
4264,-29.48693572159027
4265,-52.56646795021152
4266,-78.07964356410957
4267,-105.60948906797876
4268,-134.1155398814608
4269,-162.65212555490325
4270,-189.63995450826314
4271,-197.16953004096285
4272,-197.2043527002752
4273,-197.29343406037515
4274,-197.33911433644062
4275,-192.92288098804784
4276,-166.37675578870403
4277,-138.06626415874416
4278,-109.47311707617882
4279,-81.64516147928589
4280,-55.86484163301975
4281,-32.167202256086966
4282,-13.513877808438338
4283,0.3783251143004236
4284,7.912647687862773
4285,8.48397280871177
4286,1.6929757955767855
4287,-11.317990080186974
4288,-29.595494779608998
4289,-52.81694412025536
4290,-78.46611879494412
4291,-106.07392346022971
4292,-134.79448049398889
4293,-163.41345549236394
4294,-190.56305331846124
4295,-198.42628687943943
4296,-198.46066064486513
